-0.06
-0.065
-0.06
-0.075
-0.065
-0.07
-0.07
-0.09
-0.08
-0.095
-0.079999
-0.095002
-0.079998
-0.095001
-0.085002
-0.089993
-0.090011
-0.099989
-0.085006
-0.105
-0.089979
-0.045035
0.0050404
0.01497
0.045001
0.15504
0.13992
0.045109
0.0049009
-0.039954
-0.084956
-0.20015
-0.19477
-0.20025
-0.19981
-0.24003
-0.13017
0.34038
1.1545
1.4705
-0.15529
-0.82505
-0.58955
-0.35079
-0.15405
-0.17082
-0.13961
-0.15475
-0.11595
-0.12352
-0.091622
-0.093728
-0.065447
-0.055671
-0.013228
-0.0075007
0.037559
0.043182
0.090385
0.1114
0.14698
0.18394
0.20122
0.22742
0.22989
0.21746
0.23978
0.22415
0.20526
0.167
0.11953
0.079221
0.032856
0.028248
-0.0019872
-0.0015274
-0.0035173
-0.016538
-0.0048228
-0.021153
0.0088928
-0.0087444
-0.023039
-0.01041
-0.028925
-0.01046
-0.0459
-0.041304
-0.039745
-0.073454
-0.046595
-0.088361
-0.042089
-0.06321
-0.088232
-0.056813
-0.11361
-0.042452
-0.089816
-0.077828
-0.067948
-0.10881
-0.0605
-0.10202
-0.068491
-0.095483
-0.12178
-0.059656
-0.13103
-0.038331
-0.06288
0.0030522
0.052456
0.032238
0.23813
0.10859
0.068823
-0.0098034
-0.054109
-0.06897
-0.23071
-0.14888
-0.20424
-0.19432
-0.17826
-0.045087
0.63366
1.1393
0.97903
-0.14563
-0.78531
-0.57516
-0.41687
-0.12501
-0.16313
-0.17033
-0.090241
-0.18019
-0.044796
-0.14393
-0.068519
-0.042804
-0.10499
0.065965
-0.078509
0.077391
0.030931
0.045118
0.19086
0.042994
0.25664
0.1497
0.20091
0.26327
0.12282
0.32311
0.11557
0.22261
0.12793
0.047794
0.14872
-0.084055
0.10174
-0.059265
-0.0023678
0.046477
-0.13023
0.11961
-0.11343
0.045271
-0.002742
-0.11084
0.08643
-0.18953
0.079353
-0.12064
-0.082436
0.030035
-0.20702
0.058571
-0.20441
-0.024573
-0.067288
-0.16377
0.056697
-0.24151
0.033488
-0.15968
-0.12288
0.016745
-0.26517
0.063123
-0.22652
-0.036507
-0.052274
-0.1087
0.16717
-0.11323
0.31846
0.083054
0.047947
0.10436
-0.18747
0.061691
-0.30926
-0.11986
-0.18933
-0.28853
-0.074131
-0.20338
0.66394
1.1518
1.1866
0.011024
-0.96224
-0.51675
-0.50749
-0.10891
-0.11978
-0.25173
0.016492
-0.29125
0.0099529
-0.14401
-0.13093
0.065569
-0.2136
0.1574
-0.13137
0.081959
0.11554
-0.03755
0.3036
-0.0067665
0.3218
0.15002
0.20594
0.34272
0.09344
0.39942
0.098713
0.22806
0.18155
-0.0112
0.17763
-0.12048
0.10989
-0.061185
-0.058122
0.093139
-0.15196
0.13008
-0.12768
0.014311
0.0088975
-0.093736
0.084781
-0.16338
0.044705
-0.087392
-0.059036
-0.0017849
-0.17131
0.015568
-0.17106
-0.044616
-0.076297
-0.16183
-0.0081678
-0.17686
-0.028141
-0.14325
-0.10807
-0.055166
-0.17163
-0.017491
-0.15723
0.00098666
0.012303
-0.0025215
0.13104
0.12221
0.18234
0.01142
-0.031572
-0.034817
-0.20039
-0.15698
-0.27237
-0.16896
-0.22396
-0.27811
0.10004
0.82651
1.5325
0.5966
-0.42586
-0.81341
-0.61532
-0.28549
-0.20294
-0.15432
-0.18384
-0.12588
-0.13345
-0.12638
-0.086132
-0.10792
-0.037082
-0.048758
-0.0090581
0.014381
0.039539
0.090149
0.078734
0.1921
0.1781
0.21625
0.23786
0.21762
0.29376
0.22607
0.26608
0.19468
0.17381
0.1396
0.059702
0.064084
-0.053303
-0.0023237
-0.044509
-0.051789
-0.0092164
-0.07743
0.0034414
-0.053238
-0.025811
-0.031071
-0.060152
-0.0011102
-0.11143
-0.023025
-0.077863
-0.095984
-0.051632
-0.13845
-0.037709
-0.14392
-0.069424
-0.097077
-0.13044
-0.07385
-0.1461
-0.075813
-0.13241
-0.13472
-0.073591
-0.16212
-0.06197
-0.12292
0.0084599
0.016377
0.013606
0.16657
0.12169
0.14034
0.0061545
-0.042907
-0.039458
-0.19472
-0.17277
-0.24667
-0.15132
-0.22065
-0.21905
0.1919
1.0649
1.7272
0.31192
-0.60077
-0.70787
-0.4684
-0.15774
-0.18706
-0.12286
-0.17275
-0.10502
-0.12044
-0.11402
-0.088381
-0.10594
-0.038868
-0.032043
0.0043117
0.020691
0.038961
0.099566
0.080713
0.20385
0.18707
0.24745
0.24052
0.25193
0.29713
0.2498
0.28605
0.21484
0.17478
0.1515
0.060414
0.080917
-0.03343
0.017231
-0.029723
-0.039883
0.0065794
-0.060846
0.039891
-0.033493
0.0041925
0.0082539
-0.038048
0.03486
-0.070281
0.013813
-0.05311
-0.051621
-0.0060599
-0.097865
-0.01051
-0.088095
-0.04858
-0.050007
-0.10422
-0.010206
-0.14244
-0.038723
-0.11408
-0.093378
-0.066129
-0.14061
-0.040899
-0.12833
-0.078923
-0.068215
-0.12789
-0.029684
-0.12945
0.04423
0.0076046
0.029778
0.16628
0.096091
0.12351
-0.029
-0.021958
-0.05131
-0.21406
-0.14359
-0.2713
-0.13734
-0.23304
-0.18718
0.24624
1.1071
1.7679
0.11474
-0.67758
-0.65933
-0.42782
-0.11173
-0.20325
-0.098137
-0.16625
-0.11914
-0.1062
-0.12269
-0.052479
-0.087541
-0.02041
-0.017467
-0.014188
0.056167
0.019234
0.12238
0.092489
0.16917
0.199
0.21124
0.26807
0.23351
0.27009
0.25899
0.25175
0.24054
0.17046
0.15996
0.087601
0.068005
0.021988
0.023398
0.015292
0.0020896
0.01952
0.0048332
0.01973
0.017064
0.024525
0.020478
0.01347
0.027498
-0.016827
0.017933
-0.024745
-0.0078048
-0.01649
-0.044991
-0.0108
-0.063221
-0.019822
-0.05495
-0.045542
-0.027377
-0.086726
-0.0063916
-0.090617
-0.02238
-0.062298
-0.07036
-0.02073
-0.10389
-0.034152
-0.095042
-0.085062
-0.051842
-0.13669
-0.01113
-0.13066
-0.027944
-0.087314
-0.090975
0.023838
-0.043343
0.10486
0.021484
0.18937
0.17377
-0.0055966
0.092139
-0.10827
-0.01071
-0.18604
-0.20151
-0.12814
-0.26011
-0.13927
-0.16925
0.36727
1.2742
1.5225
-0.022878
-0.90211
-0.5067
-0.313
-0.16679
-0.082421
-0.22807
-0.042714
-0.17132
-0.10682
-0.05069
-0.16691
0.047857
-0.13615
0.058236
-0.012758
-0.0017443
0.13547
-0.011397
0.22361
0.10602
0.20171
0.26408
0.14178
0.35363
0.15039
0.3235
0.22998
0.1737
0.26514
0.025492
0.18411
-0.0067761
0.02768
0.063406
-0.081183
0.11901
-0.0971
0.058806
-0.0046961
-0.040376
0.096359
-0.087142
0.10358
-0.054604
-0.0089193
0.037211
-0.11068
0.083929
-0.1136
0.014206
-0.026854
-0.098918
0.039176
-0.14943
0.027212
-0.10767
-0.072958
-0.0044857
-0.15191
0.023735
-0.13452
-0.024942
-0.041671
-0.11703
0.01896
-0.16695
0.00063497
-0.10646
-0.084228
-0.016511
-0.15042
-0.0057903
-0.12569
-0.068014
-0.049382
-0.14494
0.0164
-0.11567
0.064843
0.033264
0.022539
0.24144
0.082975
0.12149
-0.013256
-0.029166
-0.015285
-0.24302
-0.09258
-0.22184
-0.1439
-0.17941
-0.14733
0.41473
1.0523
1.5369
-0.048539
-0.75742
-0.56475
-0.43159
-0.072035
-0.18179
-0.13926
-0.1105
-0.18338
-0.061403
-0.15829
-0.068328
-0.037876
-0.11168
0.036629
-0.085712
0.068718
0.033347
0.035098
0.1588
0.065144
0.25287
0.17072
0.20184
0.26743
0.15933
0.3329
0.16001
0.26495
0.18269
0.075455
0.17709
-0.045586
0.11192
-0.020715
-0.011859
0.066094
-0.10287
0.1027
-0.078537
0.031509
0.025618
-0.081927
0.10279
-0.12904
0.059663
-0.067262
-0.083923
0.026897
-0.17664
0.054375
-0.15013
-0.042105
-0.033257
-0.16587
0.059226
-0.1935
0.0047652
-0.093325
-0.13906
0.028733
-0.21536
0.041216
-0.16842
-0.061525
-0.034155
-0.19038
0.044902
-0.20237
-0.02404
-0.093276
-0.16211
0.040746
-0.22273
0.031826
-0.14728
-0.012331
0.092843
-0.064776
0.29376
0.040497
0.16232
0.018386
-0.10806
0.072448
-0.31295
-0.054647
-0.25102
-0.18491
-0.12225
-0.22876
0.4703
0.98562
1.5234
0.081899
-0.74194
-0.56627
-0.57084
-0.083383
-0.20451
-0.15933
-0.049366
-0.2374
0.0096533
-0.20216
-0.060598
-0.022826
-0.13884
0.10484
-0.12185
0.12614
0.026798
0.054642
0.21156
0.04885
0.29256
0.14128
0.23605
0.29381
0.14618
0.35142
0.13801
0.2651
0.16687
0.067585
0.16563
-0.060784
0.095324
-0.020539
-0.010351
0.066065
-0.096987
0.099367
-0.072803
0.025291
0.024158
-0.08462
0.09289
-0.11731
0.054669
-0.049645
-0.083041
0.037929
-0.14333
0.044754
-0.10117
-0.071105
0.006735
-0.15583
0.033303
-0.14183
-0.032444
-0.04834
-0.13497
0.028153
-0.16277
-0.0013376
-0.08907
-0.12172
0.022473
-0.19472
0.031702
-0.14538
-0.074047
-0.034007
-0.14398
0.020369
-0.17007
-0.0029174
0.01157
-0.0092038
0.16423
0.045071
0.24785
0.03611
-0.0032857
0.056093
-0.158
-0.051746
-0.26
-0.1391
-0.131
-0.28642
0.015067
0.23979
1.2465
1.5218
0.031469
-0.59502
-0.78525
-0.28932
-0.23738
-0.13412
-0.088282
-0.23658
0.023385
-0.22959
-0.0073981
-0.10405
-0.11841
0.06108
-0.13437
0.1169
-0.032225
0.072801
0.15849
0.011642
0.30315
0.077382
0.29631
0.25277
0.20814
0.37336
0.15029
0.35179
0.15504
0.17244
0.20344
-0.011058
0.15909
-0.074511
0.068278
0.0064738
-0.063185
0.10149
-0.1114
0.09093
-0.046415
-0.0094106
0.061087
-0.099733
0.091797
-0.091231
0.024531
-0.018714
-0.092163
0.040913
-0.13548
0.020636
-0.077803
-0.077026
-0.018528
-0.15021
0.0076921
-0.1494
-0.05859
-0.078416
-0.11412
-0.022142
-0.14874
-0.047207
-0.10552
-0.099948
-0.049748
-0.13913
-0.041063
-0.13609
-0.074725
-0.097854
-0.11507
-0.065667
-0.11863
-0.03044
-0.010797
0.031749
0.063825
0.15118
0.15316
0.046545
0.017164
-0.036619
-0.076792
-0.18703
-0.18789
-0.202
-0.18441
-0.2177
-0.12071
0.39285
1.2031
1.5516
-0.022473
-0.77859
-0.59666
-0.39827
-0.12922
-0.18525
-0.14646
-0.13975
-0.16576
-0.10207
-0.16363
-0.097188
-0.078873
-0.092046
0.01264
-0.076519
0.060173
0.0057668
0.07859
0.13873
0.096315
0.24877
0.15975
0.2595
0.24218
0.19493
0.31363
0.14555
0.26876
0.11636
0.1117
0.12086
-0.027257
0.10843
-0.075638
0.031695
-0.010362
-0.060926
0.074419
-0.10059
0.080869
-0.043731
-0.0060811
0.05515
-0.090021
0.095913
-0.094477
0.024818
-0.017462
-0.093452
0.049022
-0.1594
0.031521
-0.10504
-0.068936
0.00079545
-0.15144
0.051106
-0.14209
-0.020527
-0.049774
-0.11719
0.052333
-0.16115
0.031298
-0.09821
-0.066385
-0.01232
-0.16182
0.024678
-0.14928
-0.038668
-0.06259
-0.15235
0.010055
-0.20686
-0.0088067
-0.14892
-0.10831
-0.048687
-0.19221
0.012895
-0.1022
0.046069
0.024109
0.040313
0.22347
-0.017998
0.072468
-0.082853
-0.059833
-0.11739
-0.27906
-0.11761
-0.25718
-0.17564
-0.20449
0.089793
1.1042
1.5237
0.30152
-0.6507
-0.68115
-0.3724
-0.25397
-0.1101
-0.23065
-0.15305
-0.13326
-0.19986
-0.051356
-0.18842
-0.040227
-0.098265
-0.062244
0.022062
-0.063315
0.082024
0.015939
0.094775
0.14759
0.11578
0.2431
0.1391
0.24871
0.19836
0.20231
0.25633
0.14192
0.22019
0.1011
0.094036
0.062438
-0.023367
0.043328
-0.060025
0.014794
-0.022112
-0.021712
0.030291
-0.043866
0.040512
-0.011538
0.016019
0.015397
-0.032038
0.039706
-0.04672
0.0092477
-0.030886
-0.043384
0.0035443
-0.075842
-0.011302
-0.063009
-0.043186
-0.044417
-0.069754
0.0022613
-0.076474
-0.02712
-0.048871
-0.051936
-0.034372
-0.083953
-0.034937
-0.08889
-0.052913
-0.06758
-0.09616
-0.039081
-0.10447
-0.048968
-0.096446
-0.067063
-0.068624
-0.10317
-0.055322
-0.09427
-0.058117
-0.089061
-0.096339
-0.069253
-0.10567
0.008528
0.0067119
0.060834
0.11614
0.14633
0.15741
0.0012994
0.020511
-0.028102
-0.1309
-0.15301
-0.21985
-0.12035
-0.22337
-0.16932
0.12574
0.87426
1.4779
0.37377
-0.41835
-0.70837
-0.44081
-0.18504
-0.19654
-0.071743
-0.20013
-0.079065
-0.14874
-0.11971
-0.064368
-0.14554
0.0085625
-0.098154
-0.0072558
0.020002
-0.035099
0.11789
0.0083049
0.1698
0.11394
0.16413
0.25983
0.13492
0.29928
0.16936
0.25357
0.24232
0.13028
0.24692
0.033914
0.14048
0.0048614
-0.0043529
0.074641
-0.088219
0.10189
-0.074143
0.035686
0.031949
-0.064486
0.10379
-0.091513
0.07648
-0.025142
-0.025084
0.064148
-0.11849
0.084794
-0.092378
0.0034592
-0.0012688
-0.10854
0.067194
-0.14163
0.04176
-0.065612
-0.077867
0.037603
-0.15983
0.061939
-0.12958
-0.033411
-0.022523
-0.14631
0.046381
-0.16072
0.0058403
-0.081387
-0.10756
0.029663
-0.17185
0.042975
-0.13555
-0.049987
-0.031864
-0.1677
0.036281
-0.17377
-0.021257
-0.072484
-0.11921
0.085461
-0.079749
0.14317
0.049509
0.19383
0.2058
-0.042995
0.10233
-0.086263
-0.079124
-0.14412
-0.23787
-0.059665
-0.2791
-0.13183
0.094984
0.80843
1.4254
0.4275
-0.23486
-0.74401
-0.52194
-0.21191
-0.22828
-0.040521
-0.23054
-0.056055
-0.12018
-0.14028
0.0014257
-0.18127
0.030365
-0.07312
-0.0084157
0.092969
-0.059713
0.18783
0.0103
0.1667
0.18253
0.12906
0.31799
0.11088
0.3036
0.22516
0.21307
0.31897
0.078912
0.28007
0.042871
0.087712
0.10141
-0.066837
0.12884
-0.0956
0.095329
0.024533
-0.045724
0.1343
-0.10106
0.13065
-0.02325
0.0032605
0.084669
-0.12115
0.1326
-0.11515
0.030938
0.013765
-0.10804
0.10219
-0.1733
0.084042
-0.068443
-0.060476
0.065672
-0.18724
0.11306
-0.1373
0.0058137
0.0067558
-0.1474
0.11617
-0.18177
0.069886
-0.063098
-0.1025
0.083108
-0.22885
0.099358
-0.16179
-0.039656
-0.0073859
-0.18767
0.11018
-0.21577
0.033017
-0.082599
-0.11701
0.156
-0.12009
0.23095
0.086445
0.18991
0.18561
-0.12799
0.15349
-0.20986
-0.086578
-0.16235
-0.27332
-0.011432
-0.40033
0.052495
0.28236
1.085
1.5501
-0.097673
-0.48443
-0.81885
-0.35874
-0.16779
-0.27584
0.015262
-0.33421
0.013962
-0.18933
-0.11907
0.0055238
-0.23632
0.12127
-0.16287
0.056905
0.065584
-0.074121
0.25085
-0.051798
0.29566
0.13593
0.18331
0.35162
0.086104
0.42086
0.13759
0.2909
0.25735
0.061981
0.30051
-0.063548
0.17321
-0.0074732
-0.03252
0.12834
-0.14575
0.15996
-0.1032
0.033888
0.062156
-0.10259
0.1497
-0.13523
0.092489
-0.020248
-0.07621
0.0908
-0.15746
0.11449
-0.096237
-0.018331
0.019634
-0.14801
0.089143
-0.15791
0.029607
-0.048273
-0.11238
0.069266
-0.17487
0.055653
-0.10777
-0.059817
0.0044238
-0.15462
0.049793
-0.14791
-0.029093
-0.04252
-0.14072
0.044154
-0.17905
0.014867
-0.10419
-0.094593
-0.033761
-0.16293
0.047798
-0.056723
0.072818
0.091036
0.10404
0.24101
0.0038034
0.088676
-0.031966
-0.06168
-0.095151
-0.2435
-0.12059
-0.20594
-0.20317
-0.083606
0.24712
1.2205
1.5324
0.098712
-0.67762
-0.65504
-0.32499
-0.22196
-0.12905
-0.15722
-0.16547
-0.092491
-0.19624
-0.06688
-0.14963
-0.078329
-0.057735
-0.088684
0.021561
-0.039029
0.043804
0.057752
0.057387
0.1885
0.129
0.2398
0.20136
0.22411
0.2714
0.20308
0.27461
0.18945
0.18429
0.16261
0.061436
0.093958
-0.017475
0.026403
-0.010855
-0.032842
0.024085
-0.044666
0.0096937
-0.012476
-0.011556
0.026542
-0.037995
0.014139
-0.031394
-0.021112
-0.0071273
-0.068711
-0.024626
-0.07251
-0.04727
-0.040761
-0.093047
-0.040608
-0.09635
-0.06504
-0.068876
-0.091785
-0.047945
-0.10867
-0.053903
-0.091704
-0.084969
-0.051368
-0.1049
-0.05333
-0.099832
-0.092006
-0.056407
-0.10967
-0.0434
-0.12356
-0.087186
-0.069111
-0.11178
-0.0402
-0.057228
0.049534
0.019666
0.065348
0.1843
0.066039
0.056879
-0.054841
-0.0423
-0.12199
-0.24099
-0.16788
-0.22569
-0.18527
-0.21022
0.059316
0.88169
1.3457
0.61381
-0.35448
-0.70681
-0.46256
-0.28628
-0.11451
-0.17644
-0.15065
-0.10688
-0.18809
-0.065305
-0.14582
-0.051234
-0.054606
-0.068463
0.037466
-0.046914
0.080394
0.049003
0.090474
0.17765
0.11452
0.26796
0.18567
0.26833
0.27284
0.21947
0.31706
0.17713
0.24276
0.13906
0.099841
0.11198
-0.022193
0.066724
-0.030832
0.013999
0.016355
-0.046945
0.055901
-0.054616
0.038679
-0.012633
-0.016336
0.040401
-0.053227
0.041643
-0.046416
-0.0030603
-0.0099469
-0.067357
0.0092364
-0.0929
-0.020861
-0.066983
-0.072494
-0.027144
-0.10901
-0.021519
-0.096924
-0.047202
-0.056324
-0.091962
-0.042356
-0.11348
-0.050167
-0.084396
-0.088647
-0.05023
-0.11525
-0.037004
-0.11292
-0.053234
-0.092518
-0.091402
-0.06804
-0.10213
-0.068768
-0.099873
-0.045289
0.0070086
0.027069
0.061007
0.1252
0.16366
0.047196
0.013238
-0.041671
-0.06973
-0.16634
-0.21807
-0.18336
-0.19914
-0.19834
-0.15158
0.23218
1.183
1.6039
0.035495
-0.73685
-0.59221
-0.34269
-0.19337
-0.13414
-0.18707
-0.12797
-0.12881
-0.15211
-0.050963
-0.15083
-0.0063801
-0.092016
-0.0054879
0.017206
-0.024862
0.11076
0.020093
0.16159
0.15019
0.18244
0.30069
0.17461
0.33567
0.19944
0.2696
0.27314
0.16865
0.26947
0.059361
0.16872
0.036189
0.001132
0.071641
-0.092738
0.084555
-0.07087
0.027378
0.024668
-0.071374
0.099936
-0.10217
0.081858
-0.030259
-0.030447
0.070347
-0.11582
0.093257
-0.10154
0.0074344
-0.0088964
-0.12337
0.075161
-0.16264
0.034812
-0.088908
-0.081538
0.020289
-0.1678
0.055166
-0.15161
-0.030301
-0.03334
-0.14096
0.063593
-0.18576
0.026908
-0.099841
-0.081389
0.010307
-0.17247
0.034381
-0.15071
-0.045615
-0.054342
-0.16326
0.034412
-0.19604
0.0080747
-0.1234
-0.10441
0.029784
-0.10442
0.1458
-0.0090807
0.21196
0.16758
-0.019891
0.097565
-0.13376
-0.011147
-0.21518
-0.20514
-0.1264
-0.25894
-0.13493
-0.092547
0.52818
1.147
1.129
0.0086766
-0.77991
-0.55966
-0.38107
-0.16324
-0.11293
-0.20695
-0.076493
-0.17243
-0.091029
-0.086256
-0.12203
-0.021036
-0.12109
0.014025
-0.037003
0.0064259
0.055981
0.040045
0.14291
0.10467
0.19025
0.21278
0.21588
0.27019
0.21575
0.28653
0.22122
0.23355
0.18165
0.15006
0.13037
0.047194
0.06262
0.029706
0.026185
-0.0054962
0.0034701
0.014325
-0.0067906
0.02232
-0.024128
0.015817
-0.017002
-0.011234
-0.0037171
-0.059461
0.0069069
-0.060715
-0.015028
-0.036338
-0.076066
-0.013464
-0.094238
0.0048868
-0.092139
-0.046722
-0.038907
-0.10835
-0.0041624
-0.12304
-0.0067221
-0.079493
-0.086302
-0.0052928
-0.14643
0.014884
-0.13318
-0.050099
-0.063373
-0.13542
-0.0092483
-0.16517
-0.02334
-0.099437
-0.086999
0.040295
-0.063561
0.13866
0.026446
0.21805
0.14734
-0.024174
0.064645
-0.12015
-0.051266
-0.19072
-0.18759
-0.098091
-0.27883
-0.095494
0.06289
0.88242
1.3677
0.50661
-0.194
-0.77162
-0.46137
-0.31317
-0.17756
-0.081454
-0.24608
-0.028552
-0.2233
-0.087013
-0.087811
-0.15235
0.029066
-0.15901
0.041135
-0.036902
0.0034401
0.1298
-0.029995
0.20436
0.062797
0.22496
0.21066
0.16405
0.30895
0.12739
0.30161
0.18277
0.16051
0.19087
0.0089422
0.13391
-0.039485
0.038785
0.0080437
-0.064628
0.061476
-0.073462
0.056015
-0.024746
-0.011318
0.042346
-0.060401
0.056487
-0.046401
-0.0047725
-0.015684
-0.059149
0.023056
-0.07825
-0.014129
-0.05036
-0.057041
-0.019824
-0.08968
-0.015976
-0.079658
-0.044724
-0.075502
-0.06557
-0.044486
-0.069087
-0.066995
-0.080118
-0.076685
-0.069532
-0.090802
-0.056275
-0.081163
-0.084966
-0.076406
-0.015007
0.010788
0.056775
0.11438
0.16982
0.11978
0.0043242
-0.020716
-0.067131
-0.14291
-0.19431
-0.21845
-0.15355
-0.24418
-0.16793
0.12699
0.9633
1.4874
0.33782
-0.39632
-0.75634
-0.48183
-0.26665
-0.18667
-0.11724
-0.23257
-0.0653
-0.18737
-0.090738
-0.093793
-0.14304
0.00065969
-0.12694
0.025439
-0.011064
-0.0059939
0.10792
-0.0027661
0.22289
0.10274
0.22701
0.24098
0.17274
0.33874
0.1476
0.29773
0.20291
0.13389
0.21097
-0.013464
0.14539
-0.066841
0.006337
0.0213
-0.12894
0.096846
-0.14681
0.049585
-0.049808
-0.081456
0.056077
-0.16883
0.086661
-0.12102
-0.037402
0.0014769
-0.1473
0.064388
-0.18497
0.016229
-0.074826
-0.15125
0.017545
-0.23851
0.0618
-0.17535
-0.10336
-0.029358
-0.20174
0.021225
-0.20726
-0.046476
-0.12321
-0.16953
0.034829
-0.20756
0.13648
-0.035947
0.064723
0.26277
0.033237
0.21758
-0.12461
0.037815
-0.091379
-0.25521
-0.057503
-0.33135
-0.048204
-0.30434
-0.081618
0.51672
1.058
1.5539
-0.07821
-0.64427
-0.67094
-0.48216
-0.044813
-0.31039
-0.025983
-0.19221
-0.11574
-0.048632
-0.21707
0.045827
-0.16439
0.013991
-0.0085407
-0.074232
0.1376
-0.070319
0.2045
0.073718
0.16896
0.25065
0.1282
0.36897
0.16547
0.31927
0.27433
0.19445
0.3147
0.058095
0.20463
0.0068815
0.03879
0.0539
-0.10133
0.079237
-0.10997
0.022968
-0.043392
-0.0857
0.051796
-0.11611
0.055684
-0.088929
-0.025482
-0.0040007
-0.12621
0.042673
-0.14691
-0.0089243
-0.092158
-0.09489
-0.020288
-0.15908
-0.011228
-0.13944
-0.063746
-0.082497
-0.14748
-0.024519
-0.17635
-0.035977
-0.14671
-0.10401
-0.07531
-0.16703
-0.0153
-0.094779
0.07838
-0.00040461
0.073456
0.18386
0.011121
0.081641
-0.11111
-0.029486
-0.16675
-0.25612
-0.13609
-0.28951
-0.13531
-0.29108
0.069972
0.92893
1.5002
0.87826
-0.46891
-0.65317
-0.4929
-0.25742
-0.1035
-0.27772
-0.061514
-0.23248
-0.11471
-0.098303
-0.194
0.022701
-0.19315
0.047752
-0.061948
-0.021835
0.1172
-0.052989
0.24261
0.042656
0.24266
0.24789
0.17401
0.40334
0.12845
0.40098
0.20775
0.22512
0.28523
0.0015196
0.25467
-0.078393
0.09559
0.012772
-0.099734
0.14314
-0.18166
0.13936
-0.082577
-0.016515
0.099308
-0.16204
0.18227
-0.15369
0.07316
-0.0039976
-0.12372
0.1449
-0.22622
0.12123
-0.13733
-0.066098
0.047745
-0.24145
0.1333
-0.23188
0.025127
-0.063366
-0.17612
0.10643
-0.27832
0.095555
-0.16662
-0.092423
0.038612
-0.26961
0.13615
-0.25225
0.021921
-0.066734
-0.19498
0.095813
-0.28668
0.081985
-0.17116
-0.10896
0.030029
-0.24487
0.19484
-0.13481
0.11947
0.13934
0.026415
0.27169
-0.18565
0.1358
-0.12199
-0.17423
-0.074461
-0.36123
0.044132
-0.34507
-0.11113
0.16354
0.95916
1.8835
0.19462
-0.46726
-0.71019
-0.40221
-0.060499
-0.32362
0.024503
-0.30391
-0.058964
-0.12477
-0.22159
0.036676
-0.24665
0.063707
-0.10647
-0.032627
0.082222
-0.10285
0.23201
-0.027272
0.21652
0.17948
0.15343
0.35736
0.1242
0.38475
0.21377
0.26411
0.31984
0.10951
0.28825
0.013702
0.12561
0.036989
-0.022296
0.082547
-0.10467
0.077087
-0.054671
-0.012949
0.024237
-0.083877
0.070346
-0.067282
0.01339
-0.031037
-0.045983
0.029844
-0.095582
0.017046
-0.081746
-0.040235
-0.037136
-0.085813
-0.024319
-0.091539
-0.040284
-0.078034
-0.065205
-0.052856
-0.10095
-0.059073
-0.092285
-0.044343
-0.096689
-0.074185
-0.083321
-0.11038
-0.075536
-0.10248
-0.057465
-0.12773
-0.068177
-0.10989
-0.086288
0.0033731
-0.032078
0.073281
0.05074
0.19471
0.12282
0.016756
0.010096
-0.082182
-0.099652
-0.23385
-0.18914
-0.16297
-0.24641
-0.13582
0.045169
0.83211
1.2453
0.57528
-0.22911
-0.79908
-0.53252
-0.3943
-0.15157
-0.14867
-0.20848
-0.053273
-0.23312
-0.049751
-0.15207
-0.096937
0.0041374
-0.12704
0.076612
-0.079791
0.055417
0.066629
0.022076
0.19499
0.037127
0.26281
0.15666
0.22945
0.28494
0.15436
0.34688
0.12079
0.25567
0.15888
0.074639
0.1641
-0.073672
0.12891
-0.062264
0.0081673
0.034393
-0.090525
0.11831
-0.10688
0.072955
-0.025358
-0.047295
0.075134
-0.1409
0.07808
-0.097585
0.0074338
-0.020643
-0.12817
0.041582
-0.16251
0.015997
-0.099129
-0.090889
-8.5046e-05
-0.18053
0.020173
-0.16805
-0.039821
-0.062795
-0.12564
0.0029078
-0.20611
0.013604
-0.15033
-0.078616
-0.044356
-0.15392
0.00035401
-0.16757
-0.040638
-0.074592
-0.1102
0.06876
-0.067992
0.12487
0.082915
0.21216
0.14456
-0.032633
0.049118
-0.11049
-0.11664
-0.19388
-0.19398
-0.11925
-0.27386
-0.095556
0.2119
1.0996
1.5787
0.17167
-0.51261
-0.77179
-0.45876
-0.26904
-0.16888
-0.12941
-0.18986
-0.082373
-0.17277
-0.07278
-0.12023
-0.067763
-0.043503
-0.057073
0.012721
-0.0090032
0.048476
0.06006
0.082511
0.18528
0.13386
0.25934
0.21429
0.28732
0.25806
0.23258
0.27811
0.18678
0.21683
0.11582
0.09158
0.063696
-0.0087865
0.030679
-0.046756
0.00034836
-0.041192
-0.0093413
-0.011664
-0.041799
0.035446
-0.045683
0.01055
-0.040392
-0.026977
-0.018299
-0.0779
0.0050503
-0.10943
-0.019764
-0.090049
-0.095544
-0.04585
-0.13335
-0.0073829
-0.13492
-0.06752
-0.076487
-0.14426
-0.019499
-0.17992
-0.030819
-0.16005
-0.13582
-0.056676
-0.091467
0.10117
-0.047769
0.17248
0.16267
0.043549
0.076224
-0.16121
0.040451
-0.25953
-0.19928
-0.18124
-0.28477
-0.14006
-0.25203
0.38597
1.1759
1.6096
0.14213
-0.86727
-0.67767
-0.59158
-0.20759
-0.17857
-0.22833
-0.046869
-0.26624
-0.068787
-0.16037
-0.14203
0.01342
-0.20251
0.08365
-0.10473
0.027875
0.067306
-0.022485
0.24542
0.025472
0.30204
0.19019
0.23763
0.33561
0.1281
0.42886
0.14692
0.24607
0.18234
0.012088
0.18704
-0.11668
0.072812
-0.091576
-0.067332
0.034504
-0.19093
0.07803
-0.19125
0.021267
-0.047545
-0.13052
0.088698
-0.19301
0.078402
-0.1251
-0.067809
-0.023902
-0.20048
0.06672
-0.22434
-0.0069418
-0.10652
-0.16138
-0.0035545
-0.24431
0.029131
-0.17015
-0.044553
0.076497
-0.096756
0.20092
0.032109
0.22138
0.021089
-0.081604
0.076594
-0.26175
-0.089269
-0.2918
-0.17315
-0.15317
-0.37114
0.12694
0.62223
1.5614
1.1108
-0.32232
-0.75444
-0.77668
-0.23586
-0.25535
-0.15406
-0.11183
-0.24502
-0.028881
-0.24994
-0.041442
-0.097008
-0.1245
0.034661
-0.1354
0.11027
-0.066111
0.087382
0.1314
0.035387
0.31965
0.12475
0.33804
0.26298
0.25603
0.38
0.17101
0.33993
0.11063
0.16089
0.10228
-0.070906
0.088493
-0.12437
0.00011115
-0.088972
-0.10139
-0.0025961
-0.17322
0.028617
-0.12027
-0.043754
-0.023684
-0.12452
0.033205
-0.14268
-0.015126
-0.092734
-0.11204
-0.012769
-0.19343
-0.023425
-0.15895
-0.086515
-0.076488
-0.1905
-0.056112
-0.15532
-0.017446
0.0014193
-0.020642
0.10926
0.070455
0.19894
-0.0057603
-0.031877
-0.026674
-0.18344
-0.15462
-0.27748
-0.19635
-0.20723
-0.29645
0.012944
0.54864
1.516
1.4537
-0.19898
-0.84011
-0.67769
-0.27255
-0.21441
-0.16113
-0.13961
-0.19854
-0.077394
-0.21365
-0.092107
-0.12136
-0.086867
-0.017725
-0.1026
0.029901
-0.011421
0.038904
0.12332
0.064013
0.24259
0.17381
0.28003
0.29344
0.26037
0.35958
0.22749
0.28249
0.18126
0.1244
0.13572
-0.027956
0.067292
-0.06878
-0.027427
-0.027485
-0.091496
0.021046
-0.10689
3.7459e-05
-0.046557
-0.074132
0.011901
-0.11878
0.021249
-0.10125
-0.054285
-0.029602
-0.13187
-0.0088939
-0.14034
-0.062573
-0.070077
-0.13126
-0.038671
-0.18797
-0.045852
-0.15357
-0.11031
-0.068348
-0.17523
0.0043285
-0.062651
0.05471
0.050396
0.073497
0.2185
0.0048586
0.080855
-0.07089
-0.080098
-0.13427
-0.27606
-0.13462
-0.25877
-0.20783
-0.21066
0.095751
1.1679
1.675
0.47143
-0.5886
-0.69804
-0.35802
-0.25387
-0.10096
-0.20385
-0.15476
-0.11387
-0.21887
-0.040993
-0.19743
-0.038969
-0.087125
-0.078556
0.024851
-0.078239
0.095166
0.022014
0.094276
0.18529
0.11511
0.30153
0.17279
0.30469
0.27331
0.24369
0.32396
0.16115
0.24354
0.088866
0.06936
0.066624
-0.062043
0.05017
-0.089121
0.0022743
-0.032252
-0.066251
0.029162
-0.1005
0.028946
-0.063089
-0.039666
0.0052264
-0.095345
0.0048587
-0.10802
-0.056438
-0.06857
-0.1136
-0.029352
-0.14329
-0.048639
-0.12369
-0.10807
-0.073561
-0.14515
-0.059127
-0.13403
-0.091502
-0.090376
-0.1038
0.033936
0.0022916
0.031118
0.10697
0.12391
0.12576
-0.027132
-0.031068
-0.08774
-0.17765
-0.20254
-0.2374
-0.17513
-0.22471
-0.23595
0.063435
0.87626
1.5988
0.68269
-0.45976
-0.68523
-0.41921
-0.1751
-0.2
-0.16538
-0.17073
-0.15853
-0.12515
-0.14591
-0.10886
-0.096975
-0.078608
-0.027988
-0.0452
0.011723
0.017733
0.044529
0.10256
0.10998
0.20512
0.19271
0.24343
0.28257
0.23409
0.30233
0.24056
0.25755
0.19032
0.12083
0.12846
0.016261
0.047997
-0.022391
-0.0089847
0.015174
-0.050037
0.024037
-0.050613
0.00674
-0.012464
-0.055457
0.025452
-0.083033
0.0071369
-0.040516
-0.065962
-0.020078
-0.10455
-0.014437
-0.10744
-0.046341
-0.060759
-0.11848
-0.042788
-0.1315
-0.058572
-0.10113
-0.10735
-0.053952
-0.15333
-0.039249
-0.14405
-0.077063
-0.039762
-0.057572
0.082849
-0.0032841
0.1603
0.15591
0.07212
0.088019
-0.085758
0.0041157
-0.20022
-0.19036
-0.16976
-0.23739
-0.15291
-0.24831
0.14388
0.87035
1.4227
0.49071
-0.52194
-0.68902
-0.5464
-0.24582
-0.15094
-0.20806
-0.12459
-0.18227
-0.14211
-0.1233
-0.15553
-0.045486
-0.11267
-0.047647
-0.033503
-0.017903
0.051713
0.014803
0.10389
0.13358
0.1384
0.22437
0.18234
0.25524
0.26073
0.25469
0.28727
0.19898
0.20842
0.14019
0.089037
0.072613
-0.018314
0.052793
-0.049034
-0.010953
-0.0034167
-0.055249
0.044559
-0.079604
0.029563
-0.023141
-0.052336
0.027953
-0.090798
0.046369
-0.080062
-0.062723
-0.037052
-0.13544
0.016811
-0.13299
-0.049409
-0.06166
-0.14313
0.012403
-0.18736
-0.010625
-0.13122
-0.1035
-0.047436
-0.17353
-0.017792
-0.16041
-0.033001
0.0079846
-0.035952
0.14849
0.038899
0.236
0.051996
0.0034187
0.032983
-0.17697
-0.056196
-0.28103
-0.17071
-0.18591
-0.29837
-0.061312
0.1049
1.1454
1.5041
0.16968
-0.57312
-0.87841
-0.41517
-0.32914
-0.15203
-0.11486
-0.23832
-0.019043
-0.26289
-0.022875
-0.14044
-0.098455
0.012592
-0.15126
0.1142
-0.099361
0.06836
0.075263
0.025308
0.2543
0.03621
0.31084
0.17331
0.21939
0.33469
0.12983
0.36169
0.12343
0.22038
0.12461
0.022281
0.14398
-0.118
0.10156
-0.084352
-0.0074159
0.028992
-0.14594
0.10284
-0.12584
0.033503
-0.020762
-0.083768
0.046307
-0.14639
0.074431
-0.13272
-0.035318
-0.042646
-0.14036
0.013838
-0.17738
0.0018589
-0.11407
-0.12009
-0.026584
-0.18039
-0.0052756
-0.18579
-0.061356
-0.08266
-0.12082
0.036273
-0.091519
0.11438
0.011889
0.19054
0.19791
-0.006721
0.11782
-0.12249
-0.052805
-0.19818
-0.22003
-0.14303
-0.26872
-0.15497
-0.11564
0.61026
1.3425
1.2377
-0.070716
-0.92692
-0.63178
-0.43645
-0.19068
-0.13216
-0.22963
-0.096914
-0.20474
-0.093518
-0.13019
-0.12392
-0.005145
-0.13851
0.050035
-0.070113
0.044842
0.055725
0.03992
0.20317
0.076009
0.26714
0.20696
0.24156
0.32542
0.1779
0.37653
0.16758
0.23461
0.17222
0.054008
0.15533
-0.077598
0.065847
-0.054411
-0.032226
0.011893
-0.11292
0.0722
-0.10736
0.017357
-0.016462
-0.078212
0.044911
-0.12036
0.036952
-0.09341
-0.066221
-0.0099793
-0.14139
0.022137
-0.15966
-0.037426
-0.1047
-0.12737
-0.02258
-0.1676
-0.044452
-0.13989
-0.11577
-0.049701
-0.19307
-0.028145
-0.12972
0.035447
0.022581
0.016196
0.2284
0.070007
0.10729
-0.029358
-0.050653
-0.057132
-0.25347
-0.14286
-0.27343
-0.17322
-0.22013
-0.13245
0.50832
1.2916
1.6433
-0.087907
-0.86009
-0.5975
-0.413
-0.11602
-0.19715
-0.14705
-0.13884
-0.17294
-0.087432
-0.13898
-0.084836
-0.062136
-0.082884
0.0087133
-0.052081
0.043608
0.052397
0.065722
0.14009
0.13527
0.22659
0.22198
0.24471
0.28604
0.22743
0.31091
0.22386
0.22238
0.20327
0.077105
0.11512
-0.0071643
0.035765
0.0081468
-0.05111
0.044592
-0.077559
0.038382
-0.020498
-0.023419
0.048579
-0.065889
0.059671
-0.064465
-0.0096456
0.013306
-0.090471
0.031556
-0.12127
-0.019689
-0.080344
-0.10269
0.0015996
-0.17139
-0.0028081
-0.12583
-0.084527
-0.028525
-0.1618
0.00020179
-0.17228
-0.03907
-0.070742
-0.14958
-0.0040604
-0.19784
-0.0086074
-0.14554
-0.11885
-0.018074
-0.12389
0.13418
-0.069432
0.1396
0.1683
0.04154
0.12057
-0.1391
0.056308
-0.19308
-0.2076
-0.12087
-0.30588
-0.082473
-0.32696
0.10593
0.89173
1.4961
0.91476
-0.5144
-0.64864
-0.51817
-0.24566
-0.092342
-0.28218
-0.025301
-0.22449
-0.10519
-0.090634
-0.19546
0.038112
-0.18343
0.0364
-0.060892
-0.032817
0.10726
-0.062584
0.19563
0.03287
0.18646
0.22598
0.12694
0.35563
0.13362
0.32677
0.2284
0.19619
0.29289
0.052665
0.23078
0.0095545
0.061398
0.071291
-0.071774
0.11779
-0.088991
0.068295
-0.00095729
-0.038375
0.09477
-0.10213
0.091174
-0.060492
-0.0095993
0.030032
-0.10195
0.065504
-0.12253
0.0072209
-0.049849
-0.096241
0.023382
-0.14308
0.0082546
-0.10367
-0.065582
-0.013014
-0.13417
0.010024
-0.13856
-0.034995
-0.05921
-0.11226
-0.00059452
-0.1415
-0.026386
-0.09639
-0.095689
-0.022919
-0.14417
-0.012343
-0.12859
-0.062044
-0.069791
-0.12144
-0.031445
-0.12862
-0.056372
-0.079817
-0.079285
0.045344
-0.017611
0.079483
0.10116
0.15207
0.12286
-0.028792
0.016393
-0.065347
-0.14067
-0.15981
-0.21588
-0.13322
-0.23495
-0.15871
0.18482
1.0881
1.7183
0.15569
-0.61669
-0.63737
-0.38853
-0.12202
-0.19013
-0.098604
-0.17153
-0.11634
-0.12327
-0.1434
-0.073699
-0.098047
-0.035348
-0.0302
-0.039388
0.048141
0.0031605
0.10929
0.082291
0.12205
0.17646
0.15282
0.24676
0.18983
0.22575
0.25077
0.19706
0.26553
0.15891
0.19072
0.13119
0.066775
0.093826
-0.0032208
0.054874
-0.0059911
0.0019346
0.035303
-0.029127
0.055288
-0.023169
0.011037
0.014848
-0.036999
0.04887
-0.061777
0.011027
-0.035903
-0.056509
-0.0016878
-0.09808
-0.0072653
-0.068502
-0.054363
-0.021983
-0.10424
0.01678
-0.11321
-0.034351
-0.055292
-0.084339
-0.015231
-0.12499
-0.021764
-0.07753
-0.090071
-0.02457
-0.14489
0.0027383
-0.13288
-0.055781
-0.079622
-0.11124
0.019583
-0.060044
0.097205
0.049199
0.14446
0.2217
0.02617
0.091938
-0.086279
-0.022626
-0.14453
-0.22674
-0.12739
-0.23845
-0.14982
-0.14404
0.23494
1.1263
1.4791
0.13962
-0.739
-0.64909
-0.38079
-0.23529
-0.081336
-0.21548
-0.1022
-0.1281
-0.1778
-0.031357
-0.19089
-0.0089444
-0.10668
-0.0193
0.025735
-0.056293
0.10757
-0.0063907
0.14571
0.12618
0.11707
0.25318
0.11633
0.30153
0.16502
0.22755
0.2593
0.13075
0.24922
0.078492
0.12955
0.06303
-0.014781
0.089489
-0.069208
0.071381
-0.039502
-0.0028464
0.03432
-0.068862
0.078654
-0.071185
0.014881
-0.023153
-0.072881
0.032362
-0.12258
0.025959
-0.095736
-0.054995
-0.019557
-0.12499
0.015993
-0.14073
-0.027905
-0.082726
-0.11701
-0.0082315
-0.15893
-0.014472
-0.13896
-0.073695
-0.052396
-0.16273
-0.0085863
-0.16035
-0.053676
-0.1107
-0.12728
0.032908
-0.058467
0.090188
0.030871
0.20084
0.14112
0.0026219
0.055112
-0.095013
-0.092697
-0.19161
-0.21423
-0.14879
-0.25636
-0.16523
0.0042635
0.75789
1.3117
0.68552
-0.17277
-0.78939
-0.55571
-0.3645
-0.17878
-0.12273
-0.21769
-0.066226
-0.2028
-0.068743
-0.10949
-0.10466
-0.012258
-0.1078
0.056089
-0.037983
0.047913
0.066718
0.027651
0.19137
0.081001
0.2245
0.16864
0.20649
0.2565
0.17063
0.29138
0.16436
0.2247
0.14511
0.089825
0.14675
-0.0081113
0.071291
-0.047823
0.0084247
0.038396
-0.053439
0.069109
-0.10133
0.025632
-0.027019
-0.036191
0.03944
-0.11932
0.035698
-0.088038
-0.019407
-0.051388
-0.12477
0.013727
-0.13932
-0.015041
-0.10906
-0.090736
-0.020536
-0.15232
-0.0078367
-0.15631
-0.022679
-0.092346
-0.12359
-0.029872
-0.17418
-0.012979
-0.14027
-0.084471
0.0022236
-0.02716
0.12034
0.0030134
0.25778
0.1263
0.024564
0.053437
-0.11058
-0.043881
-0.21475
-0.17325
-0.1717
-0.22897
-0.13012
-0.024331
0.90106
1.4054
0.69413
-0.26622
-0.8582
-0.51845
-0.40163
-0.13786
-0.1418
-0.20288
-0.049496
-0.22273
-0.038602
-0.14933
-0.070356
-0.033699
-0.11182
0.057854
-0.080312
0.086088
0.037402
0.035891
0.19717
0.058087
0.29333
0.13765
0.23558
0.26139
0.15838
0.32493
0.11456
0.25805
0.12152
0.076765
0.13525
-0.051944
0.10661
-0.073107
0.021182
0.0047894
-0.068171
0.063014
-0.091824
0.062439
-0.053561
-0.021201
0.020519
-0.11322
0.07109
-0.12096
-0.004537
-0.062359
-0.09244
0.012638
-0.1594
0.018582
-0.12673
-0.049289
-0.035909
-0.15137
0.021765
-0.16022
-0.032777
-0.11868
-0.11063
-0.025491
-0.18319
0.00079689
-0.14179
0.006084
0.03222
-0.022166
0.16371
0.10974
0.2153
0.0072323
-0.01902
0.0044584
-0.20837
-0.11642
-0.29266
-0.15643
-0.20881
-0.29651
0.10723
0.69428
1.5138
0.85664
-0.26889
-0.76154
-0.66037
-0.2383
-0.24356
-0.11298
-0.17776
-0.16041
-0.087144
-0.20654
-0.052997
-0.14447
-0.051339
-0.027536
-0.074769
0.070269
-0.044104
0.095685
0.056253
0.1103
0.19119
0.14202
0.28492
0.17431
0.27301
0.24716
0.23279
0.29477
0.14045
0.21457
0.078517
0.080104
0.057923
-0.030787
0.053165
-0.057441
0.029226
-0.032085
-0.0084384
0.031204
-0.05095
0.034482
-0.046334
0.0087629
-0.02612
-0.056224
0.0031392
-0.090888
-0.0070851
-0.090126
-0.049383
-0.063928
-0.089992
-0.03812
-0.11409
-0.038839
-0.094904
-0.095996
-0.053215
-0.12769
-0.035015
-0.13685
-0.05118
-0.10375
-0.093803
-0.066447
-0.13572
-0.017844
-0.037198
0.057902
0.051324
0.13031
0.19639
0.017953
0.064869
-0.066214
-0.064607
-0.16371
-0.23209
-0.14353
-0.24167
-0.18654
-0.16112
0.27147
1.2679
1.6496
0.12245
-0.76944
-0.61931
-0.37348
-0.19875
-0.10632
-0.21708
-0.12098
-0.15396
-0.16032
-0.060258
-0.17135
-0.0095252
-0.11208
-0.014142
-2.0815e-05
-0.040833
0.10332
0.0074307
0.1486
0.12862
0.14953
0.25198
0.14044
0.28835
0.17142
0.24557
0.24173
0.15187
0.23504
0.067169
0.14209
0.04148
0.0013478
0.064209
-0.064766
0.066091
-0.049272
0.010406
0.031097
-0.050141
0.068741
-0.063241
0.035304
-0.021428
-0.048897
0.025847
-0.097008
0.019429
-0.080409
-0.053183
-0.023127
-0.11625
0.0046231
-0.11983
-0.035168
-0.071824
-0.10484
-0.0237
-0.13666
-0.035367
-0.09883
-0.093302
-0.042368
-0.14594
-0.036783
-0.14905
-0.077338
-0.091677
-0.14009
-0.014851
-0.059399
0.06828
0.0084335
0.091963
0.19212
0.051064
0.070323
-0.067515
-0.034253
-0.13772
-0.23362
-0.14767
-0.23111
-0.16308
-0.22537
0.059063
0.95957
1.5096
0.59186
-0.52164
-0.69943
-0.41107
-0.22496
-0.12187
-0.1977
-0.13821
-0.12642
-0.16623
-0.075172
-0.15568
-0.05129
-0.077448
-0.052034
0.012845
-0.039217
0.068102
0.03002
0.093674
0.13477
0.1212
0.22319
0.15453
0.23156
0.18951
0.19319
0.24416
0.15818
0.21283
0.13152
0.11288
0.093203
0.016041
0.065146
-0.025227
0.030738
-0.00081603
-0.018991
0.043267
-0.033214
0.032655
-0.018306
-0.010752
-0.00076346
-0.052132
0.011049
-0.050113
-0.018852
-0.038116
-0.064007
-0.024394
-0.093674
-0.032412
-0.079214
-0.067653
-0.056624
-0.093747
-0.048886
-0.095059
-0.062554
-0.061856
-0.092434
-0.058379
-0.11339
-0.047498
-0.095775
-0.083452
-0.078724
-0.0943
-0.069465
-0.099887
-0.04588
0.003685
0.014991
0.07186
0.12743
0.18218
0.1076
0.031045
-0.016259
-0.064374
-0.1455
-0.17934
-0.17948
-0.17063
-0.21257
-0.1631
0.15865
0.9713
1.4766
0.22996
-0.53841
-0.68949
-0.4419
-0.19804
-0.16906
-0.13897
-0.17584
-0.11285
-0.13975
-0.095503
-0.098117
-0.087393
-0.064651
-0.049898
-0.023741
0.0043511
0.0098954
0.064135
0.05988
0.11271
0.12237
0.15649
0.18371
0.17877
0.19011
0.19445
0.20884
0.20296
0.15234
0.16862
0.099724
0.083397
0.040094
0.022344
0.041873
-0.0012083
0.010526
-0.0012126
-0.0091539
0.022516
-0.02123
0.013882
-0.020783
-0.021029
-0.0017045
-0.05744
-0.0194
-0.066513
-0.034036
-0.036661
-0.077455
-0.047696
-0.094839
-0.036024
-0.075998
-0.075711
-0.048447
-0.11198
-0.036199
-0.096154
-0.064168
-0.081876
-0.1155
-0.038668
-0.12735
-0.052049
-0.11043
-0.095546
-0.060801
-0.11524
-0.07462
-0.11928
-0.060236
-0.0070621
-0.017572
0.068601
0.087224
0.20008
0.086178
-0.00026087
-0.0044684
-0.10131
-0.14055
-0.21529
-0.19741
-0.15753
-0.258
-0.11674
0.19968
1.0349
1.4489
0.15547
-0.5201
-0.75438
-0.45469
-0.25877
-0.18071
-0.13362
-0.19615
-0.085423
-0.18935
-0.083039
-0.10724
-0.097953
-0.033339
-0.083766
0.0073978
-0.024438
0.014965
0.079186
0.028656
0.15186
0.085614
0.1762
0.16248
0.16002
0.23509
0.16622
0.23028
0.15774
0.15498
0.16023
0.062207
0.099439
0.0049384
0.027672
0.017552
-0.029808
0.024342
-0.038783
0.023735
-0.0075033
-0.024968
0.0085939
-0.049643
-0.0082264
-0.061335
-0.048151
-0.032862
-0.081471
-0.046375
-0.098413
-0.062066
-0.070829
-0.093937
-0.066655
-0.10126
-0.081253
-0.08364
-0.095422
-0.079754
-0.11416
-0.082428
-0.097871
-0.10641
-0.088239
-0.11597
-0.091114
-0.097628
-0.12407
-0.072974
-0.078037
0.026024
0.017435
0.041562
0.19687
0.086984
0.0691
-0.035378
-0.04472
-0.10457
-0.2403
-0.15085
-0.23482
-0.18097
-0.23218
-0.038095
0.69904
1.2448
1.0301
-0.21703
-0.75654
-0.50887
-0.3678
-0.094138
-0.20475
-0.13055
-0.10937
-0.18919
-0.033779
-0.17097
-0.0362
-0.066416
-0.084824
0.056939
-0.093982
0.11526
-0.0021556
0.088047
0.16385
0.05598
0.28075
0.10648
0.25977
0.21052
0.16257
0.32011
0.093763
0.28558
0.093382
0.10083
0.13533
-0.069907
0.14518
-0.10126
0.057672
0.0077746
-0.077334
0.11819
-0.13737
0.11046
-0.057915
-0.011263
0.068301
-0.13977
0.11266
-0.14306
0.022331
-0.025421
-0.13313
0.07953
-0.19594
0.054022
-0.1259
-0.082697
0.011756
-0.19742
0.072174
-0.1783
-0.02638
-0.049388
-0.16918
0.058421
-0.22634
0.035894
-0.13548
-0.10333
0.0054192
-0.20758
0.043503
-0.18685
-0.04849
-0.054125
-0.18553
0.044966
-0.23875
0.016249
-0.11175
-0.038253
0.11459
-0.095726
0.23723
0.055775
0.13126
0.050483
-0.12271
0.090035
-0.28415
-0.094044
-0.22015
-0.19759
-0.11497
-0.30312
0.28977
1.0083
1.6635
0.22459
-0.72171
-0.51976
-0.48938
-0.083439
-0.17652
-0.17652
-0.07207
-0.22668
-0.046705
-0.16093
-0.10576
-0.036571
-0.14389
0.05773
-0.091823
0.060009
0.028179
0.019653
0.15478
0.046313
0.21527
0.15096
0.18937
0.25232
0.13922
0.27981
0.15108
0.22325
0.18302
0.10061
0.17205
0.018651
0.093021
0.012185
-0.0052589
0.056589
-0.04873
0.068493
-0.022769
0.01789
0.042283
-0.033957
0.060942
-0.0464
0.023318
0.0014182
-0.049054
0.031521
-0.083762
0.015176
-0.049763
-0.050045
0.00055102
-0.094301
0.0072369
-0.079872
-0.047851
-0.032033
-0.10677
0.0023044
-0.11138
-0.024506
-0.06547
-0.095196
-0.012281
-0.12553
-0.018839
-0.087003
-0.080319
-0.028231
-0.13342
-0.0010424
-0.12654
-0.045674
-0.069705
-0.10774
-0.016133
-0.13755
-0.027574
-0.10236
-0.079548
0.03816
-0.034073
0.11124
0.051279
0.20099
0.13817
-0.023076
0.049011
-0.094958
-0.089696
-0.20009
-0.21127
-0.12748
-0.26865
-0.1264
0.06296
0.91953
1.4639
0.25847
-0.44706
-0.75705
-0.39622
-0.20916
-0.19624
-0.089875
-0.24182
-0.04981
-0.20538
-0.10115
-0.081694
-0.14332
0.025234
-0.12289
0.031664
-0.0084373
-0.0052144
0.13112
-0.018107
0.20002
0.082502
0.18781
0.21704
0.12146
0.29537
0.12353
0.26275
0.18814
0.15617
0.23556
0.01304
0.17214
-0.0073034
0.045491
0.050625
-0.06716
0.087805
-0.08192
0.071079
-0.013661
-0.042436
0.07831
-0.097846
0.09076
-0.07903
-0.018645
0.0092385
-0.11396
0.047032
-0.12862
0.011153
-0.0686
-0.10098
0.029065
-0.15033
0.035514
-0.11749
-0.049542
-0.017391
-0.13858
0.037749
-0.15147
-0.026898
-0.067014
-0.11904
0.0024703
-0.17429
0.00656
-0.1131
-0.071621
-0.054803
-0.13071
-0.0050015
-0.14588
-0.027378
-0.019681
-0.020988
0.12327
0.040067
0.27456
0.093185
0.036061
0.016332
-0.09516
-0.085822
-0.22774
-0.16915
-0.14766
-0.24616
-0.1036
0.14716
0.96558
1.3751
0.30461
-0.35959
-0.76202
-0.48396
-0.28826
-0.14587
-0.10703
-0.19404
-0.052919
-0.19391
-0.059048
-0.0937
-0.074967
-0.017953
-0.066656
0.036592
0.001181
0.04377
0.066304
0.055574
0.17584
0.085757
0.20703
0.19053
0.18309
0.2362
0.17027
0.25202
0.19924
0.18592
0.17176
0.087574
0.11346
0.029926
0.050139
0.026781
-0.020808
0.018153
-0.027138
0.023556
-0.015305
-0.018562
0.01407
-0.028455
0.00089075
-0.037599
-0.0086333
-0.035634
-0.056555
-0.021592
-0.069828
-0.062685
-0.063404
-0.084167
-0.061707
-0.083085
-0.060957
-0.077787
-0.088534
-0.06704
-0.074324
-0.077447
-0.10361
-0.080932
-0.085571
-0.090766
-0.090305
-0.10187
-0.036437
0.013824
0.025705
0.077626
0.21554
0.13608
0.066062
-0.0059015
-0.031822
-0.10861
-0.18631
-0.20523
-0.19027
-0.18279
-0.24115
0.033787
0.72757
1.2693
0.8241
-0.20783
-0.75667
-0.66327
-0.37923
-0.1584
-0.17759
-0.15215
-0.13982
-0.15282
-0.088756
-0.14756
-0.079175
-0.077408
-0.064216
-0.025619
-0.033528
0.053567
0.026125
0.096634
0.11864
0.12373
0.19602
0.15538
0.25183
0.21433
0.22171
0.25336
0.17635
0.22073
0.11523
0.10965
0.087999
-0.015505
0.041316
-0.061877
0.017769
-0.038708
-0.032611
0.042553
-0.088926
0.013043
-0.055882
-0.032022
-0.018043
-0.099344
0.016367
-0.12419
-0.035835
-0.072581
-0.12088
-0.014272
-0.16854
-0.024704
-0.13266
-0.09738
-0.045758
-0.16657
-0.0046645
-0.18131
-0.058616
-0.11317
-0.16195
-0.018217
-0.14669
0.087195
-0.030343
0.059257
0.21393
0.063722
0.14252
-0.1129
0.014509
-0.13089
-0.24016
-0.11499
-0.31278
-0.10664
-0.30882
0.033041
0.76566
1.277
1.0724
-0.33849
-0.70179
-0.63563
-0.38544
-0.074887
-0.27134
-0.051792
-0.21255
-0.11143
-0.085418
-0.21147
0.029532
-0.18242
0.016743
-0.036746
-0.043136
0.11705
-0.061929
0.19601
0.059342
0.18505
0.24119
0.11814
0.36349
0.13609
0.32918
0.24163
0.20118
0.27595
0.025801
0.20602
-0.04718
0.031571
0.026136
-0.10936
0.094028
-0.15727
0.039556
-0.069535
-0.068233
0.057149
-0.14297
0.072605
-0.13121
-0.022849
-0.024793
-0.15437
0.046048
-0.19698
0.017047
-0.12432
-0.12715
-0.018918
-0.20827
0.0053635
-0.18702
-0.069039
-0.070849
-0.18736
-0.0053211
-0.23277
-0.018907
-0.15701
-0.11128
0.013275
-0.10533
0.11921
-0.044263
0.19744
0.12859
-0.048902
0.095299
-0.15477
-0.018439
-0.24224
-0.22115
-0.15066
-0.2897
-0.14546
-0.16805
0.50641
1.344
1.4553
-0.036331
-0.90365
-0.50118
-0.35997
-0.16221
-0.11494
-0.22736
-0.062755
-0.19898
-0.10204
-0.10417
-0.1556
0.00092885
-0.13549
0.038635
-0.04542
0.010108
0.086405
0.0054616
0.17854
0.097086
0.2074
0.22443
0.19243
0.31333
0.18345
0.30694
0.19602
0.19557
0.19918
0.052572
0.13467
-0.025855
0.010236
-0.010106
-0.061277
0.026939
-0.083036
0.0097856
-0.036278
-0.035762
0.018882
-0.051949
0.026773
-0.063873
-0.022782
-0.008028
-0.066998
0.0025243
-0.111
-0.036744
-0.058185
-0.07344
-0.029395
-0.098716
-0.0091783
-0.098074
-0.065688
-0.054928
-0.10967
-0.049438
-0.091342
-0.071541
-0.085731
-0.10677
-0.040835
-0.1331
-0.05735
-0.089534
-0.017439
0.058453
-0.0090481
0.13635
0.16018
0.1264
0.0201
-0.060043
-0.0057085
-0.19032
-0.16211
-0.19911
-0.19218
-0.17351
-0.24987
0.16002
0.9181
1.5327
0.48364
-0.48775
-0.69926
-0.56042
-0.21817
-0.16724
-0.17446
-0.1162
-0.17189
-0.10849
-0.12267
-0.10237
-0.070338
-0.089638
0.013286
-0.053222
0.029332
0.021166
0.050717
0.10528
0.090099
0.19549
0.17826
0.23075
0.2334
0.20425
0.2967
0.21176
0.27475
0.18675
0.15788
0.14109
0.046352
0.086336
-0.023215
0.031158
0.00056254
-0.026344
0.025689
-0.059658
0.046948
-0.034306
-0.0088539
0.026548
-0.067764
0.038054
-0.080755
-0.012498
-0.042876
-0.076736
-0.0052001
-0.10637
-0.030561
-0.085563
-0.07049
-0.043071
-0.12672
-0.040561
-0.12781
-0.041683
-0.085945
-0.13713
-0.036578
-0.15211
-0.049323
-0.12061
-0.092903
-0.087655
-0.14983
-0.025762
-0.10289
0.052322
0.027097
0.037454
0.24085
0.069311
0.10932
-0.043338
-0.016684
-0.10228
-0.23641
-0.13865
-0.24483
-0.14642
-0.2333
0.027169
0.80142
1.3139
0.93434
-0.27797
-0.76216
-0.58214
-0.38583
-0.12008
-0.20777
-0.11853
-0.14693
-0.15777
-0.06043
-0.16267
-0.034933
-0.099064
-0.049417
-0.002494
-0.047576
0.074328
0.003794
0.10076
0.12615
0.12298
0.2198
0.15513
0.2562
0.2084
0.24679
0.25124
0.17379
0.2543
0.1099
0.12167
0.055519
0.004878
0.0568
-0.037663
0.017999
-0.011061
-0.012985
0.0036212
-0.041585
0.02504
-0.025001
-0.015096
0.00051973
-0.021705
0.0056044
-0.046529
-0.028754
-0.048326
-0.058037
-0.025643
-0.073919
-0.04775
-0.06688
-0.078542
-0.049542
-0.096575
-0.053399
-0.087333
-0.087949
-0.074427
-0.092713
-0.091636
-0.093732
-0.10309
-0.076908
-0.12765
-0.06526
-0.084738
-0.0096023
0.048886
-0.0034053
0.14964
0.13352
0.10572
0.038312
-0.069918
-0.011256
-0.19645
-0.16211
-0.20133
-0.1923
-0.17395
-0.27896
0.20296
1.0261
1.6616
0.37647
-0.61212
-0.6211
-0.50406
-0.16549
-0.16657
-0.1807
-0.087008
-0.18842
-0.080371
-0.12965
-0.11869
-0.020136
-0.1285
0.057369
-0.079585
0.029321
0.049136
0.01116
0.18348
0.059402
0.24384
0.19149
0.21532
0.32749
0.16222
0.36298
0.18769
0.25722
0.23026
0.079311
0.20627
-0.034397
0.099948
-0.010465
-0.040767
0.068304
-0.1288
0.099747
-0.081708
0.018281
0.041131
-0.095216
0.11025
-0.10894
0.05756
-0.040696
-0.061261
0.07131
-0.16052
0.071912
-0.12749
-0.047246
-0.0089321
-0.16648
0.059505
-0.1886
-0.0035108
-0.089512
-0.12546
0.04062
-0.19214
0.053975
-0.14959
-0.073965
-0.030651
-0.18866
0.048371
-0.18304
-0.023157
-0.082399
-0.16766
0.025544
-0.19319
0.095833
-0.028304
0.048681
0.18033
0.073759
0.23161
-0.077407
0.024065
-0.019964
-0.2073
-0.079245
-0.3237
-0.062138
-0.24423
-0.22867
0.20855
0.88088
1.7195
0.34268
-0.45108
-0.66786
-0.51906
-0.083611
-0.27925
-0.054068
-0.19328
-0.13536
-0.076177
-0.20265
0.012976
-0.17387
-0.032563
-0.02175
-0.092855
0.118
-0.090889
0.13131
0.048435
0.11427
0.23117
0.10244
0.30817
0.17153
0.28582
0.28272
0.19121
0.32143
0.12
0.22554
0.08462
0.045881
0.095734
-0.074758
0.061571
-0.072742
0.015408
0.0048537
-0.072021
0.052649
-0.07808
0.045275
-0.046078
-0.04483
0.042667
-0.085222
0.019708
-0.073347
-0.032441
-0.051042
-0.10269
0.0025917
-0.12664
-0.022841
-0.075016
-0.10216
-0.037895
-0.13988
-0.050951
-0.1019
-0.081411
-0.075628
-0.12096
-0.042795
-0.12211
-0.067273
-0.08839
-0.10057
-0.060682
-0.1297
-0.039019
-0.059778
0.014484
0.02078
0.042734
0.2175
0.10922
0.088133
-0.016884
-0.035048
-0.10509
-0.20072
-0.17839
-0.20783
-0.17444
-0.23653
0.02262
0.69448
1.3065
0.95885
-0.23041
-0.74619
-0.61019
-0.33886
-0.14845
-0.17613
-0.13868
-0.15663
-0.11736
-0.10102
-0.12068
-0.065428
-0.098099
-0.035207
-0.044812
0.0051074
0.050886
0.030973
0.11053
0.086943
0.17152
0.19168
0.19291
0.26431
0.20164
0.29118
0.21739
0.25063
0.2192
0.10979
0.16133
0.021068
0.062922
-0.0020189
-0.037096
0.021495
-0.084174
0.046065
-0.062322
-0.017521
0.0056322
-0.072938
0.05162
-0.087361
0.015694
-0.057034
-0.069666
0.0093023
-0.13842
0.012617
-0.11794
-0.064284
-0.040954
-0.15036
-0.0056731
-0.15665
-0.041023
-0.083566
-0.14362
-0.014095
-0.19413
-0.015703
-0.15374
-0.10437
-0.056748
-0.16573
-0.012358
-0.16542
-0.062803
-0.086975
-0.1078
0.084671
-0.069695
0.12493
0.13068
0.13766
0.11213
-0.072575
0.045172
-0.16775
-0.16487
-0.16777
-0.27113
-0.095665
-0.32401
-0.0060957
0.4503
1.2424
1.4947
-0.13489
-0.68879
-0.71344
-0.35687
-0.1417
-0.23775
-0.050781
-0.23683
-0.078514
-0.15056
-0.14425
-0.039754
-0.15737
0.021
-0.078223
-0.0028198
0.050312
-0.022159
0.15444
0.031091
0.19388
0.18681
0.18362
0.31851
0.17943
0.31579
0.24129
0.22879
0.26236
0.10066
0.19094
0.023078
0.063009
0.030802
-0.058176
0.05974
-0.075781
0.017591
-0.027053
-0.050384
0.043763
-0.074806
0.045317
-0.043099
-0.028872
0.024772
-0.079083
0.029654
-0.10979
-0.036261
-0.040502
-0.1088
-0.0058891
-0.14941
-0.030574
-0.07979
-0.08958
-0.022692
-0.14884
-0.020808
-0.12946
-0.068489
-0.036105
-0.15019
0.0032627
-0.16413
-0.054913
-0.08413
-0.12726
-0.032667
-0.17241
-0.035657
-0.1315
-0.10216
0.029524
-0.053682
0.096293
-0.0049314
0.19383
0.12223
-0.030585
0.059196
-0.11995
-0.084018
-0.2222
-0.21095
-0.13962
-0.28386
-0.15657
-0.0025582
0.91168
1.5183
0.6361
-0.2873
-0.84674
-0.4553
-0.30227
-0.18428
-0.088836
-0.24574
-0.035064
-0.19241
-0.076022
-0.081086
-0.15222
0.018041
-0.15303
0.055688
-0.021745
-0.0022878
0.11217
-0.019658
0.24106
0.075494
0.2405
0.2195
0.17391
0.35567
0.15096
0.32882
0.18486
0.1843
0.22914
0.018821
0.182
-0.063582
0.065551
0.0060251
-0.071461
0.09627
-0.13994
0.08871
-0.061579
0.0093364
0.048208
-0.11605
0.12289
-0.11412
0.038065
-0.045191
-0.084558
0.055616
-0.17584
0.054709
-0.12983
-0.053672
0.00069673
-0.17508
0.043788
-0.21036
-0.0033298
-0.10252
-0.12181
0.00454
-0.20672
0.025949
-0.18839
-0.081453
-0.051907
-0.20909
0.039611
-0.25134
0.0047632
-0.11417
-0.064723
0.12383
-0.10243
0.24638
0.069411
0.11917
0.056872
-0.13381
0.080127
-0.32093
-0.069341
-0.25835
-0.22468
-0.12091
-0.28765
0.41985
1.0302
1.6865
0.18327
-0.7697
-0.59007
-0.61801
-0.097161
-0.22359
-0.18269
-0.064376
-0.27191
0.030308
-0.1997
-0.055541
-0.027007
-0.16186
0.12853
-0.16168
0.14531
0.0059005
0.055838
0.21836
0.01024
0.3521
0.12533
0.28753
0.31116
0.1699
0.42056
0.11343
0.36281
0.16018
0.13107
0.21703
-0.070949
0.17513
-0.084817
0.036049
0.037397
-0.10912
0.13593
-0.14284
0.10078
-0.036322
-0.046478
0.10633
-0.14552
0.11979
-0.13582
0.00076596
0.02108
-0.16863
0.094775
-0.18608
0.035071
-0.079521
-0.1111
0.03098
-0.21872
0.051816
-0.14869
-0.077262
-0.033581
-0.21334
0.057407
-0.22712
-0.00816
-0.10558
-0.15193
0.0056665
-0.24088
0.0071029
-0.16968
-0.086798
0.067509
-0.10292
0.16418
0.013105
0.21237
0.089235
-0.053056
0.085077
-0.20236
-0.078392
-0.24505
-0.2316
-0.10152
-0.36211
-0.034532
0.16867
1.2328
1.7688
0.076296
-0.57102
-0.80853
-0.34386
-0.22083
-0.2007
-0.071339
-0.30067
-0.0034559
-0.23607
-0.070911
-0.057736
-0.17828
0.052137
-0.16451
0.066151
-0.0026709
-0.018413
0.1675
-0.018321
0.2824
0.0836
0.25663
0.29407
0.16375
0.40418
0.15479
0.35684
0.22899
0.14582
0.26945
-0.029661
0.18792
-0.0325
0.010881
0.053656
-0.12706
0.11975
-0.12055
0.058417
-0.021289
-0.077454
0.094036
-0.14941
0.1081
-0.084624
-0.027714
0.040523
-0.14534
0.08865
-0.17058
0.01115
-0.063905
-0.13783
0.045938
-0.20744
0.037988
-0.12801
-0.088828
-0.00065792
-0.20081
0.050764
-0.21532
-0.039801
-0.0891
-0.14504
0.014934
-0.2236
0.012558
-0.14272
-0.11231
-0.025093
-0.17828
0.11091
-0.084675
0.080547
0.14305
0.076064
0.19582
-0.097683
0.061638
-0.11366
-0.19815
-0.12287
-0.31756
-0.046132
-0.3134
-0.11301
0.27265
1.1055
1.8335
0.040573
-0.60011
-0.7205
-0.4316
-0.11393
-0.27352
-0.045689
-0.23106
-0.075909
-0.12994
-0.15688
-0.012274
-0.17847
0.026803
-0.062678
-0.018119
0.066974
-0.031097
0.16688
0.01794
0.21616
0.20587
0.18857
0.32366
0.1905
0.35676
0.25056
0.27158
0.29535
0.13954
0.22135
0.019163
0.10742
0.025892
-0.033819
0.051581
-0.082427
0.064265
-0.055008
0.0015982
0.0019769
-0.072112
0.062794
-0.067024
0.037133
-0.033938
-0.069944
0.0071632
-0.087512
0.0041255
-0.088746
-0.04897
-0.057158
-0.091853
-0.03333
-0.1056
-0.045178
-0.092795
-0.080788
-0.048692
-0.11037
-0.048479
-0.11036
-0.070832
-0.10111
-0.085661
-0.071257
-0.10195
-0.089625
-0.095096
-0.077267
-0.099951
-0.091907
-0.0080147
0.020113
0.07553
0.081015
0.19039
0.105
0.048289
-0.0010726
-0.065433
-0.15023
-0.18054
-0.17314
-0.18877
-0.20254
-0.21022
0.145
1.0453
1.5815
0.41436
-0.50922
-0.74858
-0.49038
-0.28447
-0.14009
-0.18493
-0.15873
-0.11316
-0.17858
-0.056959
-0.15582
-0.039668
-0.09349
-0.054611
0.0018433
-0.055866
0.081113
0.009592
0.09576
0.13696
0.12061
0.26784
0.16936
0.31498
0.20207
0.24605
0.2962
0.17613
0.29422
0.086132
0.15486
0.060671
-0.0072681
0.083862
-0.10673
0.076902
-0.071389
-0.0072125
0.037608
-0.092741
0.093015
-0.088927
0.052384
-0.026336
-0.072239
0.050462
-0.13299
0.044813
-0.11772
-0.050118
-0.018799
-0.14201
0.021569
-0.16446
-0.017717
-0.098335
-0.10455
-0.017619
-0.21873
0.0077923
-0.16099
-0.078398
-0.052641
-0.18663
0.01446
-0.19477
-0.031249
-0.12959
-0.12471
0.049809
-0.10379
0.13537
-0.020521
0.20722
0.18171
-0.032012
0.081779
-0.12461
-0.043745
-0.2194
-0.21847
-0.12165
-0.28851
-0.15749
-0.025922
0.82103
1.4851
0.85105
-0.16592
-0.86914
-0.5355
-0.33705
-0.19176
-0.096032
-0.24361
-0.05046
-0.20198
-0.082643
-0.10144
-0.13855
0.0072409
-0.1288
0.038368
-0.026881
0.0093597
0.11285
0.014891
0.20201
0.10633
0.23555
0.24314
0.19797
0.34237
0.20073
0.30791
0.21168
0.19882
0.18626
0.050833
0.12568
-0.026137
0.020137
0.0048641
-0.065687
0.0056631
-0.086366
0.013384
-0.03097
-0.039301
0.010443
-0.066993
0.01643
-0.05971
-0.029191
-0.035441
-0.075644
-0.021718
-0.090978
-0.039823
-0.064662
-0.10068
-0.073623
-0.099636
-0.069885
-0.099862
-0.092437
-0.077312
-0.1027
-0.078856
-0.11894
-0.096146
-0.10457
-0.12055
-0.090366
-0.10788
-0.09745
-0.082265
-0.059211
0.029227
-0.0021926
0.064899
0.18394
0.085229
0.04867
-0.05363
-0.039636
-0.14228
-0.24039
-0.17291
-0.24866
-0.17633
-0.26914
9.479e-05
0.78667
1.4255
1.089
-0.29425
-0.7615
-0.51343
-0.30761
-0.11312
-0.23456
-0.10973
-0.15346
-0.16762
-0.076955
-0.18396
-0.019862
-0.11163
-0.036001
0.0029647
-0.067817
0.10058
-0.030578
0.14322
0.10989
0.12748
0.27676
0.12346
0.3407
0.21006
0.27679
0.3112
0.17027
0.33165
0.079663
0.19666
0.061021
0.0010443
0.11159
-0.11575
0.10931
-0.078264
-0.0033564
0.045746
-0.097213
0.12366
-0.12245
0.079612
-0.034715
-0.056556
0.09152
-0.16024
0.089599
-0.13057
-0.021888
0.0013883
-0.15944
0.070375
-0.20061
0.0060001
-0.10175
-0.12526
0.025917
-0.22395
0.040346
-0.17578
-0.054466
-0.04678
-0.21593
0.0709
-0.22871
0.0048117
-0.13438
-0.1353
-0.00050501
-0.21118
0.050642
-0.188
-0.026785
0.0065806
-0.051632
0.1648
-0.036091
0.28029
0.068047
-0.0071212
0.0574
-0.17178
-0.01994
-0.28164
-0.13946
-0.143
-0.28688
-0.097827
-0.0075811
1.102
1.5711
0.4487
-0.39984
-0.84108
-0.36128
-0.31652
-0.12293
-0.1349
-0.22235
-0.0063853
-0.25355
-0.0098735
-0.16498
-0.088456
-0.0014461
-0.13489
0.092203
-0.087913
0.072642
0.066438
0.031111
0.23005
0.060211
0.30497
0.1649
0.25591
0.30846
0.18077
0.38146
0.15357
0.27739
0.14642
0.067641
0.1576
-0.0624
0.097415
-0.064603
0.011528
0.020707
-0.075325
0.077797
-0.10311
0.061824
-0.024757
-0.018621
0.047604
-0.077874
0.068691
-0.099151
0.013247
-0.03877
-0.064651
0.0078689
-0.12936
0.011684
-0.096968
-0.053688
-0.043299
-0.13804
0.00031419
-0.16951
-0.019135
-0.10382
-0.089012
-0.051368
-0.14673
-0.0073234
-0.14984
-0.078911
-0.078151
-0.1299
-0.041237
-0.13119
0.073762
-0.037879
0.049528
0.16704
0.07351
0.15999
-0.087453
0.02895
-0.094885
-0.2002
-0.12005
-0.30399
-0.089282
-0.30407
-0.10597
0.3445
1.1159
1.688
-0.048354
-0.65196
-0.74182
-0.46496
-0.12111
-0.307
-0.049831
-0.2307
-0.081823
-0.14344
-0.1692
-0.0043147
-0.19099
0.02191
-0.058049
-0.039265
0.079902
-0.063935
0.18567
-0.006593
